0	0
1	0
2	0
3	0
4	0
5	0
6	0
7	0
8	0
9	0
10	0
11	0
12	0
13	0
14	0
15	0
16	0
17	0
18	0
19	0
20	0
21	0
22	1
23	5
24	4
25	5
26	4
27	4
28	7
29	5
30	14
31	24
32	42
33	172
34	277
35	418
36	464
37	474
38	441
39	381
40	327
41	301
42	262
43	245
44	247
45	215
46	227
47	253
48	241
49	272
50	262
51	279
52	334
53	319
54	312
55	376
56	394
57	468
58	472
59	468
60	516
61	555
62	589
63	579
64	558
65	568
66	477
67	423
68	375
69	322
70	246
71	189
72	203
73	166
74	160
75	110
76	93
77	84
78	82
79	64
80	62
81	59
82	71
83	54
84	75
85	65
86	69
87	71
88	58
89	52
90	56
91	57
92	75
93	56
94	65
95	64
96	68
97	55
98	51
99	62
100	62
101	79
102	59
103	74
104	63
105	76
106	69
107	76
108	65
109	65
110	70
111	82
112	65
113	84
114	60
115	62
116	62
117	55
118	61
119	57
120	56
121	65
122	49
123	60
124	56
125	56
126	61
127	51
128	59
129	52
130	56
131	57
132	64
133	56
134	71
135	50
136	64
137	61
138	55
139	65
140	66
141	74
142	74
143	61
144	82
145	62
146	56
147	64
148	65
149	78
150	91
151	84
152	72
153	68
154	59
155	63
156	77
157	54
158	45
159	56
160	59
161	75
162	70
163	66
164	64
165	77
166	74
167	96
168	97
169	99
170	105
171	99
172	117
173	110
174	105
175	117
176	141
177	143
178	159
179	160
180	188
181	195
182	214
183	242
184	255
185	295
186	286
187	323
188	305
189	330
190	348
191	362
192	402
193	398
194	459
195	459
196	482
197	521
198	534
199	533
200	573
201	599
202	522
203	619
204	614
205	667
206	691
207	727
208	768
209	875
210	1123
211	1399
212	1803
213	2276
214	2596
215	2516
216	2283
217	1949
218	1565
219	1402
220	1081
221	889
222	800
223	689
224	721
225	686
226	695
227	685
228	539
229	522
230	404
231	320
232	233
233	184
234	158
235	123
236	108
237	83
238	85
239	73
240	73
241	66
242	56
243	61
244	35
245	49
246	66
247	66
248	68
249	85
250	85
251	114
252	79
253	72
254	73
255	198
